Frequency	Imp. Mag	Imp. Angle
+1.00000000000000E+001	+1.77265207635739E+001	+7.27775785646377E+000
+1.01617423417667E+001	+1.77290481107343E+001	+7.39844953603217E+000
+1.03261007420454E+001	+1.77330631463329E+001	+7.51618047238475E+000
+1.04931175135791E+001	+1.77366367089515E+001	+7.63444336598407E+000
+1.06628356534870E+001	+1.77399428639854E+001	+7.75318513546440E+000
+1.08352988543338E+001	+1.77442650092393E+001	+7.87489449882209E+000
+1.10105515153780E+001	+1.77479757722177E+001	+7.99922599975398E+000
+1.11886387540020E+001	+1.77514730676248E+001	+8.12163770207149E+000
+1.13696064173274E+001	+1.77561613977882E+001	+8.25091464248243E+000
+1.15535010940178E+001	+1.77609773814551E+001	+8.37909429335559E+000
+1.17403701262728E+001	+1.77648013839271E+001	+8.51025231338613E+000
+1.19302616220159E+001	+1.77692210893100E+001	+8.64521647970128E+000
+1.21232244672793E+001	+1.77754327397910E+001	+8.77903611894841E+000
+1.23193083387894E+001	+1.77795871847926E+001	+8.91507813008610E+000
+1.25185637167555E+001	+1.77846053495753E+001	+9.05355637401816E+000
+1.27210418978659E+001	+1.77894479384638E+001	+9.19625392366986E+000
+1.29267950084932E+001	+1.77950807581948E+001	+9.34056761559735E+000
+1.31358760181143E+001	+1.78005127318662E+001	+9.48697355601156E+000
+1.33483387529470E+001	+1.78056360932120E+001	+9.63619611041220E+000
+1.35642379098066E+001	+1.78109931307707E+001	+9.78535635848075E+000
+1.37836290701879E+001	+1.78167751302320E+001	+9.93944271478586E+000
+1.40065687145734E+001	+1.78235487377002E+001	+1.00951130787869E+001
+1.42331142369745E+001	+1.78287697196796E+001	+1.02533212307769E+001
+1.44633239597066E+001	+1.78348910343382E+001	+1.04147081443716E+001
+1.46972571484039E+001	+1.78417945331824E+001	+1.05790327548656E+001
+1.49349740272769E+001	+1.78480864597532E+001	+1.07456805765172E+001
+1.51765357946165E+001	+1.78560980378552E+001	+1.09103757217947E+001
+1.54220046385492E+001	+1.78620554222566E+001	+1.10816556505480E+001
+1.56714437530468E+001	+1.78689391027117E+001	+1.12568274114048E+001
+1.59249173541951E+001	+1.78773476581542E+001	+1.14310600444726E+001
+1.61824906967259E+001	+1.78837312626412E+001	+1.16126236922572E+001
+1.64442300908165E+001	+1.78926870478590E+001	+1.17927890291566E+001
+1.67102029191604E+001	+1.78989286751911E+001	+1.19824326694535E+001
+1.69804776543145E+001	+1.79086945059668E+001	+1.21654449070613E+001
+1.72551238763271E+001	+1.79178820487967E+001	+1.23596308710688E+001
+1.75342122906502E+001	+1.79258064924726E+001	+1.25587282526672E+001
+1.78178147463426E+001	+1.79344273894482E+001	+1.27488011736761E+001
+1.81060042545664E+001	+1.79443133069655E+001	+1.29490763197608E+001
+1.83988550073835E+001	+1.79536153727194E+001	+1.31550286536508E+001
+1.86964423968555E+001	+1.79637349763234E+001	+1.33537975721479E+001
+1.89988430344528E+001	+1.79745504473180E+001	+1.35666793608506E+001
+1.93061347707778E+001	+1.79840174981521E+001	+1.37853215509627E+001
+1.96183967156067E+001	+1.79940868797683E+001	+1.40128956338760E+001
+1.99357092582557E+001	+1.80055398629748E+001	+1.42350772540072E+001
+2.02581540882767E+001	+1.80196851544804E+001	+1.44630836478017E+001
+2.05858142164875E+001	+1.80315553289508E+001	+1.46751690572061E+001
+2.09187739963423E+001	+1.80417827817911E+001	+1.49003865869866E+001
+2.12571191456480E+001	+1.80552515791105E+001	+1.51610604190128E+001
+2.16009367686310E+001	+1.80692589641024E+001	+1.53752904870324E+001
+2.19503153783622E+001	+1.80795227356510E+001	+1.56297521489937E+001
+2.23053449195436E+001	+1.80963777048250E+001	+1.58896032042371E+001
+2.26661167916636E+001	+1.81066226421854E+001	+1.61367897248661E+001
+2.30327238725277E+001	+1.81274361537785E+001	+1.63936137766759E+001
+2.34052605421685E+001	+1.81382946902127E+001	+1.66624881777376E+001
+2.37838227071435E+001	+1.81539518191723E+001	+1.69124257674856E+001
+2.41685078252252E+001	+1.81750438665454E+001	+1.71944958139369E+001
+2.45594149304910E+001	+1.81866381298515E+001	+1.74642646681730E+001
+2.49566446588187E+001	+1.82027896604328E+001	+1.77410243963836E+001
+2.53602992737943E+001	+1.82261868141593E+001	+1.80143230460487E+001
+2.57704826930390E+001	+1.82431022485912E+001	+1.83258698763650E+001
+2.61873005149620E+001	+1.82581105650087E+001	+1.86126860062038E+001
+2.66108600459458E+001	+1.82790270690334E+001	+1.89002555256887E+001
+2.70412703279715E+001	+1.83015242472771E+001	+1.91971352865203E+001
+2.74786421666906E+001	+1.83226219771730E+001	+1.95084188491253E+001
+2.79230881599516E+001	+1.83447673621315E+001	+1.98218965566158E+001
+2.83747227267864E+001	+1.83649611758764E+001	+2.01386743509765E+001
+2.88336621368674E+001	+1.83876551672507E+001	+2.04755621737003E+001
+2.93000245404400E+001	+1.84141361532685E+001	+2.08257835730409E+001
+2.97739299987392E+001	+1.84429713438716E+001	+2.11521644174559E+001
+3.02555005148986E+001	+1.84635347091431E+001	+2.14787354448841E+001
+3.07448600653588E+001	+1.84903130992113E+001	+2.18630671392696E+001
+3.12421346317848E+001	+1.85193466926364E+001	+2.22006544733919E+001
+3.17474522334983E+001	+1.85492154368242E+001	+2.25813141605387E+001
+3.22609429604355E+001	+1.85757734114766E+001	+2.29234273626845E+001
+3.27827390066377E+001	+1.86096667954511E+001	+2.33111617415333E+001
+3.33129747042836E+001	+1.86360560035424E+001	+2.37039865234349E+001
+3.38517865582721E+001	+1.86712994122427E+001	+2.40737215976631E+001
+3.43993132813642E+001	+1.87072555586936E+001	+2.44719127938344E+001
+3.49556958298935E+001	+1.87412539946334E+001	+2.48974212974819E+001
+3.55210774400546E+001	+1.87779779901442E+001	+2.52962637521719E+001
+3.60956036647776E+001	+1.88159651498343E+001	+2.57156075492664E+001
+3.66794224111999E+001	+1.88544096917325E+001	+2.61402192788255E+001
+3.72726839787436E+001	+1.88973656494413E+001	+2.65722600159497E+001
+3.78755410978087E+001	+1.89387807016339E+001	+2.70436449595008E+001
+3.84881489690927E+001	+1.89823900826676E+001	+2.74994811065845E+001
+3.91106653035453E+001	+1.90323842551696E+001	+2.79509238338059E+001
+3.97432503629701E+001	+1.90778306420618E+001	+2.84133087942406E+001
+4.03860670012827E+001	+1.91276441513467E+001	+2.89019786737591E+001
+4.10392807064361E+001	+1.91799290472557E+001	+2.93803412386989E+001
+4.17030596430240E+001	+1.92329309096377E+001	+2.98945183475312E+001
+4.23775746955738E+001	+1.92895240468592E+001	+3.03930680910011E+001
+4.30629995125393E+001	+1.93486478755782E+001	+3.09107699360931E+001
+4.37595105510048E+001	+1.94089994828652E+001	+3.14543145184325E+001
+4.44672871221131E+001	+1.94724127525783E+001	+3.19770280682072E+001
+4.51865114372273E+001	+1.95403551459685E+001	+3.25458306707397E+001
+4.59173686548397E+001	+1.96112694516639E+001	+3.31155172187844E+001
+4.66600469282395E+001	+1.96822659919359E+001	+3.36812898294005E+001
+4.74147374539511E+001	+1.97595233838269E+001	+3.42756664467134E+001
+4.81816345209566E+001	+1.98382070431848E+001	+3.48684496024198E+001
+4.89609355607132E+001	+1.99219230656096E+001	+3.54897299111030E+001
+4.97528411979809E+001	+2.00088531472458E+001	+3.61052321289459E+001
+5.05575553024716E+001	+2.00998972742415E+001	+3.67539233880368E+001
+5.13752850413336E+001	+2.01942087370191E+001	+3.73836351657228E+001
+5.22062409324852E+001	+2.02957871178696E+001	+3.80535373652323E+001
+5.30506368988108E+001	+2.04018108723240E+001	+3.87328896071896E+001
+5.39086903232335E+001	+2.05120558295563E+001	+3.94255268678591E+001
+5.47806221046790E+001	+2.06292172041048E+001	+4.01248459454658E+001
+5.56666567149436E+001	+2.07529919553741E+001	+4.08243633352586E+001
+5.65670222564833E+001	+2.08827077065824E+001	+4.15442089397813E+001
+5.74819505211364E+001	+2.10158457024105E+001	+4.22785434333570E+001
+5.84116770497969E+001	+2.11586040042443E+001	+4.30183585239817E+001
+5.93564411930522E+001	+2.13102366861111E+001	+4.37949991622051E+001
+6.03164861728023E+001	+2.14689266430585E+001	+4.45728900267651E+001
+6.12920591448749E+001	+2.16356449718832E+001	+4.53657164512135E+001
+6.22834112626543E+001	+2.18101175418216E+001	+4.61724642783310E+001
+6.32907977417382E+001	+2.19951771519384E+001	+4.70133667920452E+001
+6.43144779256412E+001	+2.21992061802405E+001	+4.78649664535911E+001
+6.53547153525606E+001	+2.24144852671233E+001	+4.87245069605263E+001
+6.64117778232225E+001	+2.26426987887956E+001	+4.95660383543262E+001
+6.74859374698241E+001	+2.28882428832580E+001	+5.04419906072511E+001
+6.85774708260930E+001	+2.31466973806837E+001	+5.13110133214578E+001
+6.96866588984778E+001	+2.34188566439390E+001	+5.21626662390798E+001
+7.08137872384914E+001	+2.37148138846826E+001	+5.30229743749890E+001
+7.19591460162235E+001	+2.40284935212190E+001	+5.38662924428183E+001
+7.31230300950429E+001	+2.43678119616836E+001	+5.47380327987523E+001
+7.43057391075077E+001	+2.47263621668546E+001	+5.56343215399932E+001
+7.55075775325029E+001	+2.51219963752205E+001	+5.65410056550824E+001
+7.67288547736265E+001	+2.55576138601729E+001	+5.73875925490749E+001
+7.79698852388427E+001	+2.60358283825597E+001	+5.81939233894770E+001
+7.92309884214237E+001	+2.65575307445714E+001	+5.88061225303086E+001
+8.05124889822006E+001	+2.71198883623102E+001	+5.93779780013786E+001
+8.18147168331452E+001	+2.77406861103402E+001	+5.97598090537338E+001
+8.31380072223022E+001	+2.84136907896412E+001	+5.99439469209668E+001
+8.44827008200972E+001	+2.91485383149410E+001	+5.98924020949271E+001
+8.58491438070388E+001	+2.99473009184947E+001	+5.95725035953776E+001
+8.72376879628403E+001	+3.08412518396555E+001	+5.89612261685016E+001
+8.86486907569824E+001	+3.18481820492531E+001	+5.78729978499763E+001
+9.00825154407409E+001	+3.29907722472183E+001	+5.60554693448446E+001
+9.15395311407027E+001	+3.46013225212554E+001	+5.35170336615407E+001
+9.30201129537948E+001	+3.57477748464391E+001	+4.86275952044446E+001
+9.45246420438496E+001	+3.73814153811722E+001	+4.13786892498929E+001
+9.60535057397325E+001	+3.90607423642338E+001	+3.04604620089250E+001
+9.76070976350569E+001	+4.04881822257341E+001	+1.43200545737190E+001
+9.91858176895112E+001	+4.10502086275891E+001	-6.61884248865309E+000
+1.00790072331826E+002	+3.97874640801677E+001	-3.17462888173702E+001
+1.02420274564404E+002	+3.79623726389403E+001	-4.45017413432842E+001
+1.04076844069647E+002	+3.61413560590333E+001	-5.21794269600113E+001
+1.05760207317998E+002	+3.45700834340817E+001	-5.63054748424657E+001
+1.07470797677732E+002	+3.31752145442544E+001	-5.89268107684629E+001
+1.09209055526525E+002	+3.19827752173151E+001	-6.02648628797395E+001
+1.10975428364824E+002	+3.09236021332206E+001	-6.10415330351629E+001
+1.12770370931053E+002	+2.99671829179000E+001	-6.13420358474956E+001
+1.14594345318681E+002	+2.91040788385976E+001	-6.13247729654849E+001
+1.16447821095188E+002	+2.83051091306681E+001	-6.10460139391244E+001
+1.18331275422944E+002	+2.75873586663162E+001	-6.05690678510737E+001
+1.20245193182059E+002	+2.69123878013734E+001	-5.98652149154719E+001
+1.22190067095204E+002	+2.62954971504011E+001	-5.90432966691491E+001
+1.24166397854464E+002	+2.57176584621260E+001	-5.79933055274695E+001
+1.26174694250236E+002	+2.52038326627308E+001	-5.69049301140419E+001
+1.28215473302209E+002	+2.47177304784689E+001	-5.58124896934206E+001
+1.30289260392471E+002	+2.42763457374614E+001	-5.46841800130375E+001
+1.32396589400763E+002	+2.38688124282179E+001	-5.35300313460208E+001
+1.34538002841924E+002	+2.34696884588572E+001	-5.23835719325108E+001
+1.36714052005550E+002	+2.31046610546289E+001	-5.10880301987365E+001
+1.38925297097929E+002	+2.27756077186476E+001	-4.98353572866612E+001
+1.41172307386254E+002	+2.24548505593318E+001	-4.86368763030396E+001
+1.43455661345180E+002	+2.21567485059226E+001	-4.73607031491954E+001
+1.45775946805746E+002	+2.18823904857281E+001	-4.60889892470761E+001
+1.48133761106707E+002	+2.16261515835870E+001	-4.47959299134134E+001
+1.50529711248318E+002	+2.13848149968643E+001	-4.35403401773301E+001
+1.52964414048594E+002	+2.11616730375926E+001	-4.22834237101048E+001
+1.55438496302113E+002	+2.09511398572285E+001	-4.10237462183744E+001
+1.57952594941372E+002	+2.07571505106605E+001	-3.97699782488406E+001
+1.60507357200766E+002	+2.05831586689228E+001	-3.84916054607913E+001
+1.63103440783210E+002	+2.04262372396105E+001	-3.73179424132835E+001
+1.65741514029458E+002	+2.02689495914504E+001	-3.62392802863969E+001
+1.68422256090166E+002	+2.01107061894268E+001	-3.51305721872943E+001
+1.71146357100731E+002	+1.99545539330690E+001	-3.39665195856172E+001
+1.73914518358962E+002	+1.98230486419387E+001	-3.27139340479839E+001
+1.76727452505622E+002	+1.97024319537021E+001	-3.15334674461266E+001
+1.79585883707894E+002	+1.96012733988566E+001	-3.03594987925307E+001
+1.82490547845809E+002	+1.95126592985751E+001	-2.92582809278641E+001
+1.85442192701696E+002	+1.94211965998037E+001	-2.82779585991302E+001
+1.88441578152688E+002	+1.93220798865100E+001	-2.71633810290372E+001
+1.91489476366350E+002	+1.92662890765296E+001	-2.60559190170126E+001
+1.94586671999467E+002	+1.91928051735882E+001	-2.52901620406224E+001
+1.97733962400045E+002	+1.90971923517165E+001	-2.42156092948635E+001
+2.00932157812583E+002	+1.90502103288963E+001	-2.31200812817908E+001
+2.04182081586668E+002	+1.90052627617223E+001	-2.21839697100518E+001
+2.07484570388930E+002	+1.89591365835229E+001	-2.13201985013793E+001
+2.10840474418446E+002	+1.89176676366825E+001	-2.04300587861936E+001
+2.14250657625609E+002	+1.88970932449566E+001	-1.96066268161138E+001
+2.17715997934551E+002	+1.88744528976002E+001	-1.89704921367035E+001
+2.21237387469152E+002	+1.88041610717103E+001	-1.85577575576330E+001
+2.24815732782712E+002	+1.87134258337698E+001	-1.73586410041449E+001
+2.28451955091338E+002	+1.87018240880370E+001	-1.67878255669585E+001
+2.32146990511103E+002	+1.86738458616729E+001	-1.58229492527297E+001
+2.35901790299039E+002	+1.86512682377841E+001	-1.51273317950003E+001
+2.39717321098031E+002	+1.85970815255070E+001	-1.45350523858766E+001
+2.43594565185673E+002	+1.85504998167285E+001	-1.36294225999696E+001
+2.47534520727150E+002	+1.85334808242857E+001	-1.29952992649878E+001
+2.51538202032201E+002	+1.84698977976580E+001	-1.22237570210141E+001
+2.55606639816247E+002	+1.84499521376965E+001	-1.11955200752961E+001
+2.59740881465746E+002	+1.84620653329852E+001	-1.05092903529195E+001
+2.63941991307827E+002	+1.84380861280812E+001	-9.93351995511478E+000
+2.68211050884297E+002	+1.83957627032567E+001	-9.11081260904538E+000
+2.72549159230069E+002	+1.83941659878140E+001	-8.30406091395759E+000
+2.76957433156110E+002	+1.83889586422063E+001	-7.49675615106120E+000
+2.81437007536946E+002	+1.83956603947149E+001	-6.77951342490197E+000
+2.85989035602829E+002	+1.83970855581944E+001	-6.09012760684677E+000
+2.90614689236629E+002	+1.84077434304027E+001	-5.40042248845276E+000
+2.95315159275522E+002	+1.84218663636730E+001	-4.81084266694358E+000
+3.00091655817564E+002	+1.84183649181464E+001	-4.32117622083889E+000
+3.04945408533221E+002	+1.83962580741483E+001	-3.63847179981914E+000
+3.09877666981937E+002	+1.84063931755683E+001	-2.89800811961478E+000
+3.14889700933823E+002	+1.84293816420041E+001	-2.21442027091515E+000
+3.19982800696547E+002	+1.84562341041239E+001	-1.75650698581560E+000
+3.25158277447519E+002	+1.84469942079882E+001	-1.27174083307971E+000
+3.30417463571437E+002	+1.84497067707589E+001	-6.96363945106920E-001
+3.35761713003303E+002	+1.84394092370641E+001	-1.25315980969167E-001
+3.41192401576977E+002	+1.84379761846552E+001	+5.76470572061984E-001
+3.46710927379383E+002	+1.84658447199312E+001	+1.27819287084535E+000
+3.52318711110427E+002	+1.84800754761845E+001	+1.80748156128143E+000
+3.58017196448748E+002	+1.85011243714952E+001	+2.39642786409061E+000
+3.63807850423385E+002	+1.85080367321484E+001	+2.95229837720531E+000
+3.69692163791442E+002	+1.85312821576392E+001	+3.50811875684053E+000
+3.75671651421885E+002	+1.85328709558144E+001	+4.09540976870776E+000
+3.81747852685518E+002	+1.85559883558044E+001	+4.71244702114353E+000
+3.87922331851293E+002	+1.85836105971937E+001	+5.31735614465541E+000
+3.94196678489015E+002	+1.86151615775928E+001	+5.87138284013413E+000
+4.00572507878561E+002	+1.86302257544482E+001	+6.39272917594201E+000
+4.07051461425724E+002	+1.86590828988027E+001	+7.00557480788045E+000
+4.13635207084779E+002	+1.86844184590145E+001	+7.53442039386216E+000
+4.20325439787883E+002	+1.87146468989452E+001	+8.11567593396275E+000
+4.27123881881423E+002	+1.87577673966866E+001	+8.70200883179512E+000
+4.34032283569420E+002	+1.87874374552014E+001	+9.14843867964673E+000
+4.41052423364106E+002	+1.88068823300997E+001	+9.55570769346273E+000
+4.48186108543784E+002	+1.88342917350933E+001	+1.02461249590677E+001
+4.55435175618101E+002	+1.88637505014585E+001	+1.08150646148829E+001
+4.62801490800840E+002	+1.89002718466871E+001	+1.14060287061890E+001
+4.70286950490363E+002	+1.89472097011184E+001	+1.20519567629454E+001
+4.77893481757826E+002	+1.90037191447917E+001	+1.26500277198072E+001
+4.85623042843280E+002	+1.90558416829044E+001	+1.31978737053279E+001
+4.93477623659813E+002	+1.91209041053208E+001	+1.38496266541341E+001
+5.01459246305832E+002	+1.92035250297303E+001	+1.43142470457423E+001
+5.09569965585639E+002	+1.92940091335708E+001	+1.45677400999089E+001
+5.17811869538417E+002	+1.93229184357391E+001	+1.48439150726311E+001
+5.26187079975790E+002	+1.93593097308906E+001	+1.53558869774006E+001
+5.34697753028055E+002	+1.94385686146219E+001	+1.55076276699402E+001
+5.43346079699269E+002	+1.94045806544476E+001	+1.62453221811417E+001
+5.52134286431300E+002	+1.94810565517324E+001	+1.72116400414495E+001
+5.61064635677007E+002	+1.96314623485200E+001	+1.79267517757600E+001
+5.70139426482694E+002	+1.97958542155378E+001	+1.81858684747076E+001
+5.79360995079976E+002	+1.99135413244815E+001	+1.78682993221911E+001
+5.88731715487227E+002	+1.99601887792194E+001	+1.78342438568814E+001
+5.98254000120749E+002	+1.99963716786298E+001	+1.74322337265930E+001
+6.07930300415830E+002	+1.99502813259167E+001	+1.79067816705701E+001
+6.17763107457848E+002	+1.99855073738690E+001	+1.88227280421746E+001
+6.27754952623577E+002	+2.00941863751547E+001	+1.96850985498339E+001
+6.37908408232874E+002	+2.01997156198143E+001	+2.00084443452036E+001
+6.48226088210898E+002	+2.04170557533457E+001	+2.02554593433755E+001
+6.58710648761046E+002	+2.05341102412615E+001	+1.94814352683141E+001
+6.69364789048773E+002	+2.05990912808563E+001	+1.93044248643789E+001
+6.80191251896463E+002	+2.05940739620389E+001	+1.86351378390905E+001
+6.91192824489558E+002	+2.06091373083897E+001	+1.90313250133808E+001
+7.02372339094084E+002	+2.05130398087431E+001	+1.91687656677264E+001
+7.13732673785806E+002	+2.07431737046156E+001	+2.05402908965743E+001
+7.25276753191156E+002	+2.09467003088191E+001	+1.94643481880250E+001
+7.37007549240163E+002	+2.09483883937435E+001	+1.85874938933030E+001
+7.48928081931547E+002	+2.08684540864616E+001	+1.80679237272235E+001
+7.61041420110189E+002	+2.07967671179048E+001	+1.85856181385148E+001
+7.73350682257196E+002	+2.08236946907216E+001	+1.89539587351995E+001
+7.85859037292710E+002	+2.09250232567568E+001	+1.88040314227564E+001
+7.98569705391733E+002	+2.09483787117857E+001	+1.88490361014487E+001
+8.11485958813132E+002	+2.08741903245778E+001	+1.78344426312472E+001
+8.24611122742053E+002	+2.07303734137834E+001	+1.84947348724487E+001
+8.37948576145968E+002	+2.07701274267121E+001	+1.94867901328169E+001
+8.51501752644558E+002	+2.08717519284566E+001	+2.02151907207710E+001
+8.65274141393675E+002	+2.08776386650367E+001	+1.98698461142733E+001
+8.79269287983591E+002	+2.09191792396210E+001	+2.03045188953570E+001
+8.93490795351790E+002	+2.09118934997572E+001	+2.01333430994107E+001
+9.07942324710507E+002	+2.09424022520862E+001	+2.07408324878616E+001
+9.22627596489282E+002	+2.09924911323707E+001	+2.07536325784741E+001
+9.37550391292757E+002	+2.10032487425005E+001	+2.07382387187880E+001
+9.52714550873953E+002	+2.09961450338384E+001	+2.08740304363529E+001
+9.68123979123307E+002	+2.09731605417867E+001	+2.10464762753074E+001
+9.83782643073695E+002	+2.09408198057888E+001	+2.14554922697453E+001
+9.99694573921710E+002	+2.08982947013675E+001	+2.21048534222715E+001
+1.01586386806546E+003	+2.09986781859103E+001	+2.30021078574642E+001
